Depth	Temperature
m	'C
1.45	27.9451
1.50	27.9419
1.55	27.9359
1.60	27.929
1.65	27.9187
1.70	27.911
1.75	27.9047
1.80	27.8917
1.85	27.8809
1.90	27.8717
1.95	27.8603
2.00	27.8528
2.05	27.84
2.10	27.8286
2.15	27.8139
2.20	27.8015
2.25	27.7872
2.30	27.7713
2.35	27.7528
2.40	27.739
2.45	27.7248
2.50	27.7046
2.55	27.683
2.60	27.6643
2.65	27.6459
2.70	27.6277
2.75	27.6001
2.80	27.5813
2.85	27.5536
2.90	27.5167
2.95	27.4841
3.00	27.4535
3.05	27.4189
3.10	27.3818
3.15	27.3497
3.20	27.3186
3.25	27.2814
3.30	27.2526
3.35	27.2148
3.40	27.1853
3.45	27.1534
3.50	27.1175
3.55	27.0862
3.60	27.0514
3.65	27.016
3.70	26.9883
3.75	26.9515
3.80	26.9183
3.85	26.8889
3.90	26.8541
3.95	26.8221
4.00	26.7922
4.05	26.7618
4.10	26.7317
4.15	26.6977
4.20	26.6662
4.25	26.6382
4.30	26.6112
4.35	26.582
4.40	26.5425
4.45	26.5069
4.50	26.4786
4.55	26.4458
4.60	26.4133
4.65	26.3843
4.70	26.3516
4.75	26.319
4.80	26.2914
4.85	26.2604
4.90	26.2339
4.95	26.2045
5.00	26.1771
5.05	26.1428
5.10	26.1143
5.15	26.0877
5.20	26.0579
5.25	26.0272
5.30	26.0018
5.35	25.9713
5.40	25.9428
5.45	25.9192
5.50	25.8889
5.55	25.8664
5.60	25.8388
5.65	25.8117
5.70	25.7918
5.75	25.763
5.80	25.7408
5.85	25.7164
5.90	25.6924
5.95	25.6698
6.00	25.6428
6.05	25.619
6.10	25.5983
6.15	25.5723
6.20	25.5528
6.25	25.5336
6.30	25.508
6.35	25.4891
6.40	25.4616
6.45	25.4408
6.50	25.42
6.55	25.3963
6.60	25.3765
6.65	25.3545
6.70	25.3353
6.75	25.3157
6.80	25.2964
6.85	25.2785
6.90	25.2555
6.95	25.2367
7.00	25.2205
7.05	25.1986
7.10	25.1796
7.15	25.1618
7.20	25.1437
7.25	25.1261
7.30	25.1075
7.35	25.088
7.40	25.074
7.45	25.054
7.50	25.0366
7.55	25.0217
7.60	25.0043
7.65	24.9892
7.70	24.9723
7.75	24.9545
7.80	24.9401
7.85	24.9223
7.90	24.9066
7.95	24.8908
8.00	24.8752
8.05	24.8593
8.10	24.8467
8.15	24.8314
8.20	24.8166
8.25	24.8025
8.30	24.7904
8.35	24.776
8.40	24.7624
8.45	24.7497
8.50	24.7338
8.55	24.7197
8.60	24.7073
8.65	24.6923
8.70	24.6791
8.75	24.6625
8.80	24.6519
8.85	24.6388
8.90	24.6242
8.95	24.6111
9.00	24.5986
9.05	24.5866
9.10	24.5742
9.15	24.563
9.20	24.5517
9.25	24.5395
9.30	24.5286
9.35	24.516
9.40	24.5031
9.45	24.4937
9.50	24.4835
9.55	24.4706
9.60	24.4578
9.65	24.4483
9.70	24.4359
9.75	24.426
9.80	24.4142
9.85	24.4049
9.90	24.3949
9.95	24.3842
10.00	24.3746
10.05	24.3625
10.10	24.3532
10.15	24.3442
10.20	24.3345
10.25	24.3239
10.30	24.3142
10.35	24.3052
10.40	24.2948
10.45	24.2868
10.50	24.2775
10.55	24.2674
10.60	24.2577
10.65	24.2494
10.70	24.2403
10.75	24.229
10.80	24.2214
10.85	24.213
10.90	24.2049
10.95	24.1958
11.00	24.186
11.05	24.1773
11.10	24.1714
11.15	24.1606
11.20	24.1517
11.25	24.1446
11.30	24.1371
11.35	24.126
11.40	24.1188
11.45	24.1125
11.50	24.1023
11.55	24.0921
11.60	24.0857
11.65	24.0762
11.70	24.0684
11.75	24.0606
11.80	24.0516
11.85	24.0439
11.90	24.0358
11.95	24.0273
12.00	24.0205
12.05	24.0126
12.10	24.0043
12.15	23.9971
12.20	23.9884
12.25	23.9804
12.30	23.9726
12.35	23.965
12.40	23.9589
12.45	23.9509
12.50	23.9419
12.55	23.9334
12.60	23.926
12.65	23.9195
12.70	23.9135
12.75	23.9032
12.80	23.8976
12.85	23.89
12.90	23.8832
12.95	23.8755
13.00	23.8682
13.05	23.8612
13.10	23.8515
13.15	23.8458
13.20	23.8384
13.25	23.8302
13.30	23.8226
13.35	23.8155
13.40	23.808
13.45	23.8011
13.50	23.7937
13.55	23.7869
13.60	23.7788
13.65	23.7726
13.70	23.7657
13.75	23.7579
13.80	23.7512
13.85	23.7434
13.90	23.7342
13.95	23.7272
14.00	23.7213
14.05	23.714
14.10	23.7071
14.15	23.6992
14.20	23.6913
14.25	23.6852
14.30	23.6786
14.35	23.6694
14.40	23.6631
14.45	23.6559
14.50	23.6489
14.55	23.6419
14.60	23.6344
14.65	23.6275
14.70	23.6183
14.75	23.6123
14.80	23.6071
14.85	23.5981
14.90	23.5917
14.95	23.5846
15.00	23.5762
15.05	23.5695
15.10	23.5638
15.15	23.5573
15.20	23.5475
15.25	23.5413
15.30	23.5346
15.35	23.5274
15.40	23.5209
15.45	23.5139
15.50	23.5064
15.55	23.4998
15.60	23.4923
15.65	23.4843
15.70	23.4785
15.75	23.4705
15.80	23.4644
15.85	23.4556
15.90	23.4488
15.95	23.4408
16.00	23.4347
16.05	23.4288
16.10	23.421
16.15	23.4144
16.20	23.4068
16.25	23.399
16.30	23.3918
16.35	23.3842
16.40	23.3778
16.45	23.3718
16.50	23.3632
16.55	23.3574
16.60	23.3487
16.65	23.343
16.70	23.3351
16.75	23.3267
16.80	23.3216
16.85	23.3125
16.90	23.307
16.95	23.3008
17.00	23.292
17.05	23.2857
17.10	23.2802
17.15	23.2717
17.20	23.2629
17.25	23.2576
17.30	23.2505
17.35	23.2441
17.40	23.2368
17.45	23.2301
17.50	23.223
17.55	23.2138
17.60	23.2089
17.65	23.2014
17.70	23.1947
17.75	23.1888
17.80	23.1811
17.85	23.175
17.90	23.1667
17.95	23.1595
18.00	23.1529
18.05	23.1462
18.10	23.1384
18.15	23.1325
18.20	23.1285
18.25	23.12
18.30	23.1135
18.35	23.1057
18.40	23.0999
18.45	23.0921
18.50	23.0857
18.55	23.079
18.60	23.0712
18.65	23.066
18.70	23.059
18.75	23.0513
18.80	23.0454
18.85	23.0372
18.90	23.0307
18.95	23.0244
19.00	23.018
19.05	23.0104
19.10	23.0045
19.15	22.9984
19.20	22.9894
19.25	22.9845
19.30	22.9789
19.35	22.9707
19.40	22.9639
19.45	22.9575
19.50	22.9504
19.55	22.9458
19.60	22.9363
19.65	22.9304
19.70	22.9249
19.75	22.9177
19.80	22.9109
19.85	22.9053
19.90	22.8975
19.95	22.8904
20.00	22.8852
20.05	22.8789
20.10	22.8717
20.15	22.865
20.20	22.8576
20.25	22.8517
20.30	22.8464
20.35	22.8374
20.40	22.8321
20.45	22.826
20.50	22.8191
20.55	22.8124
20.60	22.8074
20.65	22.7994
20.70	22.7938
20.75	22.7856
20.80	22.7796
20.85	22.774
20.90	22.7661
20.95	22.7606
21.00	22.753
21.05	22.7467
21.10	22.7407
21.15	22.7362
21.20	22.7301
21.25	22.723
21.30	22.7168
21.35	22.7099
21.40	22.7048
21.45	22.6986
21.50	22.6917
21.55	22.6867
21.60	22.679
21.65	22.6757
21.70	22.6692
21.75	22.6618
21.80	22.6575
21.85	22.6512
21.90	22.6434
21.95	22.6379
22.00	22.6329
22.05	22.6264
22.10	22.6203
22.15	22.6136
22.20	22.6088
22.25	22.6027
22.30	22.5963
22.35	22.5897
22.40	22.5841
22.45	22.5791
22.50	22.574
22.55	22.5674
22.60	22.5625
22.65	22.5552
22.70	22.5487
22.75	22.5437
22.80	22.537
22.85	22.5332
22.90	22.5263
22.95	22.5202
23.00	22.5137
23.05	22.5081
23.10	22.5038
23.15	22.4972
23.20	22.4926
23.25	22.485
23.30	22.4789
23.35	22.4762
23.40	22.47
23.45	22.4626
23.50	22.4588
23.55	22.45
23.60	22.446
23.65	22.4403
23.70	22.4344
23.75	22.4282
23.80	22.4241
23.85	22.4169
23.90	22.412
23.95	22.4064
24.00	22.4
24.05	22.393
24.10	22.3891
24.15	22.3826
24.20	22.3767
24.25	22.3718
24.30	22.3662
24.35	22.359
24.40	22.3539
24.45	22.3491
24.50	22.3418
24.55	22.3379
24.60	22.3324
24.65	22.3273
24.70	22.322
24.75	22.3152
24.80	22.3096
24.85	22.3053
24.90	22.2999
24.95	22.2932
25.00	22.2896
25.05	22.2823
25.10	22.2771
25.15	22.2726
25.20	22.2675
25.25	22.2607
25.30	22.2565
25.35	22.2509
25.40	22.2467
25.45	22.2404
25.50	22.2346
25.55	22.2301
25.60	22.2234
25.65	22.2196
25.70	22.2134
25.75	22.2091
25.80	22.2026
25.85	22.1982
25.90	22.1916
25.95	22.1874
26.00	22.1841
26.05	22.1765
26.10	22.173
26.15	22.168
26.20	22.1626
26.25	22.1575
26.30	22.1546
26.35	22.1474
26.40	22.1444
26.45	22.1386
26.50	22.1345
26.55	22.1281
26.60	22.1239
26.65	22.1196
26.70	22.1148
26.75	22.1099
26.80	22.1047
26.85	22.0998
26.90	22.0958
26.95	22.0896
27.00	22.0863
27.05	22.0816
27.10	22.0774
27.15	22.0735
27.20	22.0698
27.25	22.0633
27.30	22.06
27.35	22.0571
27.40	22.0512
27.45	22.0467
27.50	22.0424
27.55	22.0371
27.60	22.0354
27.65	22.0307
27.70	22.0262
27.75	22.0218
27.80	22.0173
27.85	22.0128
27.90	22.0085
27.95	22.0048
28.00	22.0015
28.05	21.9976
28.10	21.9932
28.15	21.9886
28.20	21.9842
28.25	21.9799
28.30	21.9764
28.35	21.9715
28.40	21.9677
28.45	21.9649
28.50	21.9613
28.55	21.957
28.60	21.9521
28.65	21.9477
28.70	21.9448
28.75	21.9405
28.80	21.9379
28.85	21.9339
28.90	21.9285
28.95	21.9277
29.00	21.9227
29.05	21.9196
29.10	21.9152
29.15	21.9124
29.20	21.9083
29.25	21.9039
29.30	21.9016
29.35	21.8972
29.40	21.8941
29.45	21.8913
29.50	21.8877
29.55	21.8842
29.60	21.8817
29.65	21.8798
29.70	21.8773
29.75	21.8739
29.80	21.8729
29.85	21.8698
29.90	21.8655
29.95	21.8628
30.00	21.8598
30.05	21.8592
30.10	21.8532
30.15	21.8534
30.20	21.8496
30.25	21.8459
30.30	21.8436
30.35	21.8388
30.40	21.8366
30.45	21.8333
30.50	21.8314
30.55	21.8277
30.60	21.8233
30.65	21.8211
30.70	21.8181
30.75	21.8153
30.80	21.8114
30.85	21.8074
30.90	21.8045
30.95	21.8007
31.00	21.7979
31.05	21.7954
31.10	21.7926
31.15	21.7879
31.20	21.785
31.25	21.7818
31.30	21.7799
31.35	21.3504
31.40	20.278
31.45	20.1251
31.50	20.0799
31.55	20.0629
31.60	20.0284
31.65	20.0145
31.70	19.9937
31.75	19.9722
31.80	19.9497
31.85	19.9305
31.90	19.9156
31.95	19.8991
32.00	19.8861
32.05	19.8742
32.10	19.8628
32.15	19.8504
32.20	19.8404
32.25	19.8343
32.30	19.8246
32.35	19.8142
32.40	19.8095
32.45	19.8051
32.50	19.8007
32.55	19.7944
32.60	19.7896
32.65	19.7875
32.70	19.7837
32.75	19.7808
32.80	19.7772
32.85	19.7747
32.90	19.7737
32.95	19.7709
33.00	19.7671
33.05	19.7648
33.10	19.7626
33.15	19.7616
33.20	19.7609
33.25	19.7585
33.30	19.7582
33.35	19.7567
33.40	19.7559
33.45	19.7532
33.50	19.7499
33.55	19.7485
33.60	19.7483
33.65	19.7485
33.70	19.7481
33.75	19.7454
33.80	19.7435
33.85	19.7424
33.90	19.7405
33.95	19.7417
34.00	19.7394
34.05	19.7395
34.10	19.7397
34.15	19.742
34.20	19.7429
34.25	19.7422
34.30	19.7406
34.35	19.7407
34.40	19.7402
34.45	19.7384
34.50	19.7397
34.55	19.7415
34.60	19.7428
34.65	19.7415
34.70	19.7411
34.75	19.7399
34.80	19.7391
34.85	19.739
34.90	19.742
34.95	19.7465
35.00	19.7524
35.05	19.754
35.10	19.7534
35.15	19.7508
35.20	19.7491
35.25	19.7508
35.30	19.752
35.35	19.7549
35.40	19.7574
35.45	19.7585
35.50	19.76
35.55	19.7581
35.60	19.7587
35.65	19.7582
35.70	19.7592
35.75	19.7574
35.80	19.7585
35.85	19.7582
35.90	19.7568
35.95	19.756
36.00	19.7548
36.05	19.7564
36.10	19.757
36.15	19.7575
36.20	19.7576
36.25	19.7582
36.30	19.7589
36.35	19.7601
36.40	19.7599
36.45	19.7593
36.50	19.7604
36.55	19.7597
36.60	19.7586
36.65	19.7583
36.70	19.7589
36.75	19.7597
36.80	19.7586
36.85	19.7579
36.90	19.7591
36.95	19.7589
37.00	19.7595
37.05	19.76
37.10	19.7593
37.15	19.7601
37.20	19.7604
37.25	19.76
37.30	19.7598
37.35	19.7608
37.40	19.7605
37.45	19.7603
37.50	19.7607
37.55	19.7608
37.60	19.7618
37.65	19.7611
37.70	19.7623
37.75	19.7622
37.80	19.7636
37.85	19.7638
37.90	19.7648
37.95	19.7644
38.00	19.7643
38.05	19.7641
38.10	19.7646
38.15	19.7651
38.20	19.7638
38.25	19.765
38.30	19.7653
38.35	19.7653
38.40	19.7666
38.45	19.7646
38.50	19.7646
38.55	19.7656
38.60	19.7652
38.65	19.7646
38.70	19.7661
38.75	19.7656
38.80	19.7664
38.85	19.7653
38.90	19.7668
38.95	19.7669
39.00	19.7668
39.05	19.7667
39.10	19.7662
39.15	19.7671
39.20	19.7676
39.25	19.7661
39.30	19.7666
39.35	19.7687
39.40	19.7687
39.45	19.7671
39.50	19.7672
39.55	19.7676
39.60	19.7674
39.65	19.7679
39.70	19.7665
39.75	19.7667
39.80	19.7671
39.85	19.7669
39.90	19.7671
39.95	19.7679
40.00	19.767
40.05	19.7676
40.10	19.7685
40.15	19.769
40.20	19.7715
40.25	19.7731
40.30	19.7752
40.35	19.7782
40.40	19.7782
40.45	19.7793
40.50	19.7792
40.55	19.7794
40.60	19.7792
40.65	19.7789
40.70	19.7791
40.75	19.7798
40.80	19.7905
40.85	19.801
40.90	19.8112
40.95	19.8203
41.00	19.8249
41.05	19.8297
41.10	19.8343
41.15	19.8369
41.20	19.8386
41.25	19.8392
41.30	19.8403
41.35	19.8442
41.40	19.8463
41.45	19.8471
41.50	19.8477
41.55	19.849
41.60	19.8491
41.65	19.848
41.70	19.8485
41.75	19.8497
41.80	19.8504
41.85	19.8509
41.90	19.8521
41.95	19.8516
42.00	19.8518
42.05	19.8521
42.10	19.852
42.15	19.8539
42.20	19.8546
42.25	19.8556
42.30	19.8555
42.35	19.8554
42.40	19.856
42.45	19.8568
42.50	19.8573
42.55	19.8586
42.60	19.8591
42.65	19.859
42.70	19.8606
42.75	19.861
42.80	19.8613
42.85	19.8638
42.90	19.8642
42.95	19.8637
43.00	19.8649
43.05	19.8646
43.10	19.8657
43.15	19.8656
43.20	19.8662
43.25	19.8666
43.30	19.8676
43.35	19.8664
43.40	19.8704
43.45	19.8696
43.50	19.8695
43.55	19.8709
43.60	19.8729
43.65	19.8739
43.70	19.8744
43.75	19.8739
43.80	19.8761
43.85	19.8777
43.90	19.877
43.95	19.8784
44.00	19.8787
44.05	19.8803
44.10	19.8814
44.15	19.8824
44.20	19.8852
44.25	19.8921
44.30	19.8944
44.35	19.8991
44.40	19.9017
44.45	19.9061
44.50	19.9104
44.55	19.9147
44.60	19.9229
44.65	19.9297
44.70	19.9348
44.75	19.9382
44.80	19.9419
44.85	19.9437
44.90	19.9443
44.95	19.9458
45.00	19.9463
45.05	19.9488
45.10	19.9488
45.15	19.9525
45.20	19.9525
45.25	19.9518
45.30	19.9521
45.35	19.9516
45.40	19.9542
45.45	19.9552
45.50	19.9584
45.55	19.9589
45.60	19.959
45.65	19.9605
45.70	19.965
45.75	19.9668
45.80	19.9676
45.85	19.9683
45.90	19.9698
45.95	19.9734
46.00	19.9767
46.05	19.9801
46.10	19.9808
46.15	19.9828
46.20	19.9822
46.25	19.9829
46.30	19.9829
46.35	19.9831
46.40	19.9828
46.45	19.9827
46.50	19.9821
46.55	19.9831
46.60	19.9859
46.65	19.988
46.70	19.9898
46.75	19.9927
46.80	19.9935
46.85	19.9942
46.90	19.9942
46.95	19.9951
47.00	19.9952
47.05	19.9954
47.10	19.9957
47.15	19.9981
47.20	19.9958
47.25	19.9946
47.30	19.9951
47.35	19.9977
47.40	19.9989
47.45	20.0012
47.50	20.0005
47.55	20.0008
47.60	20.0013
47.65	20.0028
47.70	20.0038
47.75	20.0048
47.80	20.006
47.85	20.0055
47.90	20.0043
47.95	20.0056
48.00	20.0078
48.05	20.0082
48.10	20.0084
48.15	20.0094
48.20	20.0089
48.25	20.0102
48.30	20.0135
48.35	20.0146
48.40	20.0176
48.45	20.0183
48.50	20.0185
48.55	20.0192
48.60	20.0213
48.65	20.0217
48.70	20.0226
48.75	20.0231
48.80	20.0234
48.85	20.0252
48.90	20.0262
48.95	20.0283
49.00	20.0301
49.05	20.0283
49.10	20.0288
49.15	20.0288
49.20	20.0318
49.25	20.0331
49.30	20.0349
49.35	20.0354
49.40	20.036
49.45	20.0352
49.50	20.0363
49.55	20.0374
49.60	20.0393
49.65	20.0417
49.70	20.0432
49.75	20.0443
49.80	20.0446
49.85	20.047
49.90	20.0503
49.95	20.0543
50.00	20.0571
50.05	20.0588
50.10	20.0616
50.15	20.0644
50.20	20.0676
50.25	20.071
50.30	20.0723
50.35	20.0729
50.40	20.0728
50.45	20.0728
50.50	20.0744
50.55	20.0742
50.60	20.0757
50.65	20.0763
50.70	20.0753
50.75	20.0744
50.80	20.0747
50.85	20.0792
50.90	20.0819
50.95	20.0838
51.00	20.083
51.05	20.0832
51.10	20.0825
51.15	20.0823
51.20	20.0828
51.25	20.0871
51.30	20.0912
51.35	20.0943
51.40	20.0949
51.45	20.0934
51.50	20.0932
51.55	20.0932
51.60	20.0926
51.65	20.0934
51.70	20.0934
51.75	20.0937
51.80	20.0964
51.85	20.1009
51.90	20.1021
51.95	20.1037
52.00	20.1027
52.05	20.1034
52.10	20.1046
52.15	20.105
52.20	20.1069
52.25	20.1109
52.30	20.1128
52.35	20.1127
52.40	20.1138
52.45	20.1134
52.50	20.1141
52.55	20.1133
52.60	20.1132
52.65	20.1155
52.70	20.1168
52.75	20.1185
52.80	20.1206
52.85	20.1204
52.90	20.1248
52.95	20.1259
53.00	20.1286
53.05	20.129
53.10	20.1346
53.15	20.1376
53.20	20.142
53.25	20.1437
53.30	20.1462
53.35	20.1466
53.40	20.1456
53.45	20.1468
53.50	20.1462
53.55	20.1461
53.60	20.1453
53.65	20.1471
53.70	20.1466
53.75	20.1497
53.80	20.1534
53.85	20.1543
53.90	20.1551
53.95	20.1552
54.00	20.1547
54.05	20.1553
54.10	20.155
54.15	20.1563
54.20	20.1588
54.25	20.1589
54.30	20.162
54.35	20.1643
54.40	20.1674
54.45	20.1679
54.50	20.1709
54.55	20.1744
54.60	20.1762
54.65	20.1809
54.70	20.1842
54.75	20.186
54.80	20.1893
54.85	20.1898
54.90	20.1898
54.95	20.1905
55.00	20.1917
55.05	20.1944
55.10	20.1969
55.15	20.1994
55.20	20.2018
55.25	20.2014
55.30	20.2014
55.35	20.2003
55.40	20.201
55.45	20.2021
55.50	20.2043
55.55	20.2055
55.60	20.2058
55.65	20.205
55.70	20.2051
55.75	20.2051
55.80	20.2061
55.85	20.2089
55.90	20.2103
55.95	20.2139
56.00	20.2181
56.05	20.219
56.10	20.2231
56.15	20.2259
56.20	20.2296
56.25	20.2297
56.30	20.2316
56.35	20.2328
56.40	20.2335
56.45	20.2341
56.50	20.2357
56.55	20.236
56.60	20.2365
56.65	20.238
56.70	20.2383
56.75	20.2361
56.80	20.2362
56.85	20.2387
56.90	20.2419
56.95	20.2446
57.00	20.2467
57.05	20.2472
57.10	20.2471
57.15	20.2504
57.20	20.2542
57.25	20.2573
57.30	20.2614
57.35	20.2617
57.40	20.2646
57.45	20.2668
57.50	20.2676
57.55	20.2685
57.60	20.267
57.65	20.2665
57.70	20.267
57.75	20.2661
57.80	20.2668
57.85	20.2691
57.90	20.2716
57.95	20.2725
58.00	20.2726
58.05	20.2729
58.10	20.2727
58.15	20.2725
58.20	20.2732
58.25	20.2753
58.30	20.2765
58.35	20.2793
58.40	20.284
58.45	20.2899
58.50	20.2933
58.55	20.2953
58.60	20.2976
58.65	20.2984
58.70	20.298
58.75	20.2971
58.80	20.2971
58.85	20.2971
58.90	20.2973
58.95	20.2973
59.00	20.3003
59.05	20.3032
59.10	20.3067
59.15	20.3075
59.20	20.3085
59.25	20.31
59.30	20.3098
59.35	20.3093
59.40	20.3098
59.45	20.3088
59.50	20.31
59.55	20.3091
59.60	20.3103
59.65	20.3095
59.70	20.3111
59.75	20.3117
59.80	20.3141
59.85	20.3194
59.90	20.3239
59.95	20.3292
60.00	20.3304
60.05	20.332
60.10	20.3303
60.15	20.3327
60.20	20.3331
60.25	20.3363
60.30	20.3404
60.35	20.3429
60.40	20.3474
60.45	20.3481
60.50	20.3489
60.55	20.3509
60.60	20.3502
60.65	20.3498
60.70	20.3504
60.75	20.3505
60.80	20.3519
60.85	20.3532
60.90	20.356
60.95	20.359
61.00	20.3623
61.05	20.364
61.10	20.3655
61.15	20.3648
61.20	20.3651
61.25	20.3636
61.30	20.3658
61.35	20.3665
61.40	20.3671
61.45	20.3673
61.50	20.3693
61.55	20.3728
61.60	20.3741
61.65	20.3729
61.70	20.3745
61.75	20.3752
61.80	20.3794
61.85	20.3815
61.90	20.3824
61.95	20.3843
62.00	20.3862
62.05	20.3897
62.10	20.3922
62.15	20.3975
62.20	20.4004
62.25	20.4042
62.30	20.4045
62.35	20.4061
62.40	20.4066
62.45	20.4089
62.50	20.4093
62.55	20.4115
62.60	20.4146
62.65	20.4143
62.70	20.4158
62.75	20.4185
62.80	20.4218
62.85	20.4229
62.90	20.4226
62.95	20.4231
63.00	20.4224
63.05	20.4237
63.10	20.4245
63.15	20.4263
63.20	20.4273
63.25	20.4288
63.30	20.4296
63.35	20.43
63.40	20.433
63.45	20.4361
63.50	20.4384
63.55	20.441
63.60	20.4444
63.65	20.4459
63.70	20.4484
63.75	20.4505
63.80	20.4523
63.85	20.4534
63.90	20.4526
63.95	20.453
64.00	20.4537
64.05	20.4563
64.10	20.459
64.15	20.4594
64.20	20.4602
64.25	20.4609
64.30	20.4636
64.35	20.4647
64.40	20.4656
64.45	20.4661
64.50	20.4671
64.55	20.4704
64.60	20.4756
64.65	20.4806
64.70	20.4844
64.75	20.4846
64.80	20.4838
64.85	20.4843
64.90	20.4836
64.95	20.4836
65.00	20.4835
65.05	20.4864
65.10	20.4891
65.15	20.4904
65.20	20.4944
65.25	20.498
65.30	20.5028
65.35	20.5079
65.40	20.5099
65.45	20.5118
65.50	20.5123
65.55	20.5119
65.60	20.5131
65.65	20.5118
65.70	20.5114
65.75	20.5122
65.80	20.5123
65.85	20.5133
65.90	20.5122
65.95	20.5121
66.00	20.5141
66.05	20.5153
66.10	20.5168
66.15	20.5208
66.20	20.522
66.25	20.5252
66.30	20.5266
66.35	20.5274
66.40	20.5299
66.45	20.5324
66.50	20.5334
66.55	20.5363
66.60	20.5398
66.65	20.5429
66.70	20.5449
66.75	20.5473
66.80	20.5485
66.85	20.5495
66.90	20.5468
66.95	20.5481
67.00	20.5507
67.05	20.5522
67.10	20.5532
67.15	20.5532
67.20	20.5549
67.25	20.5568
67.30	20.5589
67.35	20.5607
67.40	20.5639
67.45	20.5671
67.50	20.5672
67.55	20.5693
67.60	20.5708
67.65	20.5737
67.70	20.5756
67.75	20.5764
67.80	20.5781
67.85	20.5801
67.90	20.5828
67.95	20.5834
68.00	20.5829
68.05	20.584
68.10	20.5847
68.15	20.5867
68.20	20.5875
68.25	20.589
68.30	20.59
68.35	20.5941
68.40	20.5963
68.45	20.5979
68.50	20.599
68.55	20.5999
68.60	20.6011
68.65	20.6017
68.70	20.6026
68.75	20.6028
68.80	20.6043
68.85	20.6052
68.90	20.6065
68.95	20.6072
69.00	20.6083
